120.0024
120.0144
120.0264
120.0384
120.0504
120.0624
120.0744
120.0864
120.0984
120.1104
120.1224
120.1344
120.1464
120.1584
120.1704
120.1824
120.1944
120.2064
120.2184
120.2304
120.2424
120.2544
120.2664
120.2784
120.2904
120.3024
120.3144
120.3263
120.3383
120.3503
120.3623
120.3743
120.3863
120.3983
120.4103
120.4223
120.4343
120.4463
120.4583
120.4703
120.4823
120.4943
120.5063
120.5183
120.5303
120.5423
120.5543
120.5663
120.5783
120.5903
120.6023
120.6143
120.6263
120.6383
120.6503
120.6623
120.6743
120.6863
120.6983
120.7103
120.7223
120.7343
120.7463
120.7583
120.7703
120.7823
120.7943
120.8063
120.8183
120.8303
120.8423
120.8543
120.8663
120.8783
120.8903
120.9023
120.9143
120.9263
120.9383
120.9503
120.9623
120.9743
120.9863
120.9983
121.0103
121.0223
121.0343
121.0463
121.0583
121.0703
121.0823
121.0943
121.1063
121.1183
121.1303
121.1423
121.1543
121.1663
121.1783
121.1903
121.2023
121.2143
121.2263
121.2383
121.2503
121.2623
121.2743
121.2863
121.2983
121.3103
121.3223
121.3343
121.3463
121.3583
121.3703
121.3823
121.3943
121.4063
121.4183
121.4303
121.4423
121.4543
121.4663
121.4783
121.4903
121.5023
121.5143
121.5263
121.5383
121.5503
121.5623
121.5743
121.5862
121.5982
121.6102
121.6222
121.6342
121.6462
121.6582
121.6702
121.6822
121.6942
121.7062
121.7182
121.7302
121.7422
121.7542
121.7662
121.7782
121.7902
121.8022
121.8142
121.8262
121.8382
121.8502
121.8622
121.8742
121.8862
121.8982
121.9102
121.9222
121.9342
121.9462
121.9582
121.9702
121.9822
121.9942
122.0062
122.0182
122.0302
122.0422
122.0542
122.0662
122.0782
122.0902
122.1022
122.1142
122.1262
122.1382
122.1502
122.1622
122.1742
122.1862
122.1982
122.2102
122.2222
122.2342
122.2462
122.2582
122.2702
122.2822
122.2942
122.3062
122.3182
122.3302
122.3422
122.3542
122.3662
122.3782
122.3902
122.4022
122.4142
122.4262
122.4382
122.4502
122.4622
122.4742
122.4862
122.4982
122.5102
122.5222
122.5342
122.5462
122.5582
122.5702
122.5822
122.5942
122.6062
122.6182
122.6302
122.6422
122.6542
122.6662
122.6782
122.6902
122.7022
122.7142
122.7262
122.7382
122.7502
122.7622
122.7742
122.7862
122.7982
122.8102
122.8222
122.8341
122.8461
122.8581
122.8701
122.8821
122.8941
122.9061
122.9181
122.9301
122.9421
122.9541
122.9661
122.9781
122.9901
123.0021
123.0141
123.0261
123.0381
123.0501
123.0621
123.0741
123.0861
123.0981
123.1101
123.1221
123.1341
123.1461
123.1581
123.1701
123.1821
123.1941
123.2061
123.2181
123.2301
123.2421
123.2541
123.2661
123.2781
123.2901
123.3021
123.3141
123.3261
123.3381
123.3501
123.3621
123.3741
123.3861
123.3981
123.4101
123.4221
123.4341
123.4461
123.4581
123.4701
123.4821
123.4941
123.5061
123.5181
123.5301
123.5421
123.5541
123.5661
123.5781
123.5901
123.6021
123.6141
123.6261
123.6381
123.6501
123.6621
123.6741
123.6861
123.6981
123.7101
123.7221
123.7341
123.7461
123.7581
123.7701
123.7821
123.7941
123.8061
123.8181
123.8301
123.8421
123.8541
123.8661
123.8781
123.8901
123.9021
123.9141
123.9261
123.9381
123.9501
123.9621
123.9741
123.9861
123.9981
124.0101
124.0221
124.0341
124.0461
124.0581
124.0701
124.082
124.094
124.106
124.118
124.13
124.142
124.154
124.166
124.178
124.19
124.202
124.214
124.226
124.238
124.25
124.262
124.274
124.286
124.298
124.31
124.322
124.334
124.346
124.358
124.37
124.382
124.394
124.406
124.418
124.43
124.442
124.454
124.466
124.478
124.49
124.502
124.514
124.526
124.538
124.55
124.562
124.574
124.586
124.598
124.61
124.622
124.634
124.646
124.658
124.67
124.682
124.694
124.706
124.718
124.73
124.742
124.754
124.766
124.778
124.79
124.802
124.814
124.826
124.838
124.85
124.862
124.874
124.886
124.898
124.91
124.922
124.934
124.946
124.958
124.97
124.982
124.994
125.006
125.018
125.03
125.042
125.054
125.066
125.078
125.09
125.102
125.114
125.126
125.138
125.15
125.162
125.174
125.186
125.198
125.21
125.222
125.234
125.246
125.258
125.27
125.282
125.294
125.306
125.318
125.3299
125.3419
125.3539
125.3659
125.3779
125.3899
125.4019
125.4139
125.4259
125.4379
125.4499
125.4619
125.4739
125.4859
125.4979
125.5099
125.5219
125.5339
125.5459
125.5579
125.5699
125.5819
125.5939
125.6059
125.6179
125.6299
125.6419
125.6539
125.6659
125.6779
125.6899
125.7019
125.7139
125.7259
125.7379
125.7499
125.7619
125.7739
125.7859
125.7979
125.8099
125.8219
125.8339
125.8459
125.8579
125.8699
125.8819
125.8939
125.9059
125.9179
125.9299
125.9419
125.9539
125.9659
125.9779
125.9899
126.0019
126.0139
126.0259
126.0379
126.0499
126.0619
126.0739
126.0859
126.0979
126.1099
126.1219
126.1339
126.1459
126.1579
126.1699
126.1819
126.1939
126.2059
126.2179
126.2299
126.2419
126.2539
126.2659
126.2779
126.2899
126.3019
126.3139
126.3259
126.3379
126.3499
126.3619
126.3739
126.3859
126.3979
126.4099
126.4219
126.4339
126.4459
126.4579
126.4699
126.4819
126.4939
126.5059
126.5179
126.5299
126.5419
126.5539
126.5659
126.5778
126.5898
126.6018
126.6138
126.6258
126.6378
126.6498
126.6618
126.6738
126.6858
126.6978
126.7098
126.7218
126.7338
126.7458
126.7578
126.7698
126.7818
126.7938
126.8058
126.8178
126.8298
126.8418
126.8538
126.8658
126.8778
126.8898
126.9018
126.9138
126.9258
126.9378
126.9498
126.9618
126.9738
126.9858
126.9978
127.0098
127.0218
127.0338
127.0458
127.0578
127.0698
127.0818
127.0938
127.1058
127.1178
127.1298
127.1418
127.1538
127.1658
127.1778
127.1898
127.2018
127.2138
127.2258
127.2378
127.2498
127.2618
127.2738
127.2858
127.2978
127.3098
127.3218
127.3338
127.3458
127.3578
127.3698
127.3818
127.3938
127.4058
127.4178
127.4298
127.4418
127.4538
127.4658
127.4778
127.4898
127.5018
127.5138
127.5258
127.5378
127.5498
127.5618
127.5738
127.5858
127.5978
127.6098
127.6218
127.6338
127.6458
127.6578
127.6698
127.6818
127.6938
127.7058
127.7178
127.7298
127.7418
127.7538
127.7658
127.7778
127.7898
127.8018
127.8138
127.8257
127.8377
127.8497
127.8617
127.8737
127.8857
127.8977
127.9097
127.9217
127.9337
127.9457
127.9577
127.9697
127.9817
127.9937
128.0057
128.0177
128.0297
128.0417
128.0537
128.0657
128.0777
128.0897
128.1017
128.1137
128.1257
128.1377
128.1497
128.1617
128.1737
128.1857
128.1977
128.2097
128.2217
128.2337
128.2457
128.2577
128.2697
128.2817
128.2937
128.3057
128.3177
128.3297
128.3417
128.3537
128.3657
128.3777
128.3897
128.4017
128.4137
128.4257
128.4377
128.4497
128.4617
128.4737
128.4857
128.4977
128.5097
128.5217
128.5337
128.5457
128.5577
128.5697
128.5817
128.5937
128.6057
128.6177
128.6297
128.6417
128.6537
128.6657
128.6777
128.6897
128.7017
128.7137
128.7257
128.7377
128.7497
128.7617
128.7737
128.7857
128.7977
128.8097
128.8217
128.8337
128.8457
128.8577
128.8697
128.8817
128.8937
128.9057
128.9177
128.9297
128.9417
128.9537
128.9657
128.9777
128.9897
129.0017
129.0137
129.0257
129.0377
129.0497
129.0617
129.0737
129.0856
129.0976
129.1096
129.1216
129.1336
129.1456
129.1576
129.1696
129.1816
129.1936
129.2056
129.2176
129.2296
129.2416
129.2536
129.2656
129.2776
129.2896
129.3016
129.3136
129.3256
129.3376
129.3496
129.3616
129.3736
129.3856
129.3976
129.4096
129.4216
129.4336
129.4456
129.4576
129.4696
129.4816
129.4936
129.5056
129.5176
129.5296
129.5416
129.5536
129.5656
129.5776
129.5896
129.6016
129.6136
129.6256
129.6376
129.6496
129.6616
129.6736
129.6856
129.6976
129.7096
129.7216
129.7336
129.7456
129.7576
129.7696
129.7816
129.7936
129.8056
129.8176
129.8296
129.8416
129.8536
129.8656
129.8776
129.8896
129.9016
129.9136
129.9256
129.9376
129.9496
129.9616
129.9736
129.9856
129.9976
129.9976
130.0096
130.0216
130.0336
130.0456
130.0576
130.0696
130.0816
130.0936
130.1056
130.1176
130.1296
130.1416
130.1536
130.1656
130.1776
130.1896
130.2016
130.2136
130.2256
130.2376
130.2496
130.2616
130.2736
130.2856
130.2976
130.3096
130.3215
130.3335
130.3455
130.3575
130.3695
130.3815
130.3935
130.4055
130.4175
130.4295
130.4415
130.4535
130.4655
130.4775
130.4895
130.5015
130.5135
130.5255
130.5375
130.5495
130.5615
130.5735
130.5855
130.5975
130.6095
130.6215
130.6335
130.6455
130.6575
130.6695
130.6815
130.6935
130.7055
130.7175
130.7295
130.7415
130.7535
130.7655
130.7775
130.7895
130.8015
130.8135
130.8255
130.8375
130.8495
130.8615
130.8735
130.8855
130.8975
130.9095
130.9215
130.9335
130.9455
130.9575
130.9695
130.9815
130.9935
131.0055
131.0175
131.0295
131.0415
131.0535
131.0655
131.0775
131.0895
131.1015
131.1135
131.1255
131.1375
131.1495
131.1615
131.1735
131.1855
131.1975
131.2095
131.2215
131.2335
131.2455
131.2575
131.2695
131.2815
131.2935
131.3055
131.3175
131.3295
131.3415
131.3535
131.3655
131.3775
131.3895
131.4015
131.4135
131.4255
131.4375
131.4495
131.4615
131.4735
131.4855
131.4975
131.5095
131.5215
131.5335
131.5455
131.5575
131.5695
131.5814
131.5934
131.6054
131.6174
131.6294
131.6414
131.6534
131.6654
131.6774
131.6894
131.7014
131.7134
131.7254
131.7374
131.7494
131.7614
131.7734
131.7854
131.7974
131.8094
131.8214
131.8334
131.8454
131.8574
131.8694
131.8814
131.8934
131.9054
131.9174
131.9294
131.9414
131.9534
131.9654
131.9774
131.9894
132.0014
132.0134
132.0254
132.0374
132.0494
132.0614
132.0734
132.0854
132.0974
132.1094
132.1214
132.1334
132.1454
132.1574
132.1694
132.1814
132.1934
132.2054
132.2174
132.2294
132.2414
132.2534
132.2654
132.2774
132.2894
132.3014
132.3134
132.3254
132.3374
132.3494
132.3614
132.3734
132.3854
132.3974
132.4094
132.4214
132.4334
132.4454
132.4574
132.4694
132.4814
132.4934
132.5054
132.5174
132.5294
132.5414
132.5534
132.5654
132.5774
132.5894
132.6014
132.6134
132.6254
132.6374
132.6494
132.6614
132.6734
132.6854
132.6974
132.7094
132.7214
132.7334
132.7454
132.7574
132.7694
132.7814
132.7934
132.8054
132.8174
132.8293
132.8413
132.8533
132.8653
132.8773
132.8893
132.9013
132.9133
132.9253
132.9373
132.9493
132.9613
132.9733
132.9853
132.9973
133.0093
133.0213
133.0333
133.0453
133.0573
133.0693
133.0813
133.0933
133.1053
133.1173
133.1293
133.1413
133.1533
133.1653
133.1773
133.1893
133.2013
133.2133
133.2253
133.2373
133.2493
133.2613
133.2733
133.2853
133.2973
133.3093
133.3213
133.3333
133.3453
133.3573
133.3693
133.3813
133.3933
133.4053
133.4173
133.4293
133.4413
133.4533
133.4653
133.4773
133.4893
133.5013
133.5133
133.5253
133.5373
133.5493
133.5613
133.5733
133.5853
133.5973
133.6093
133.6213
133.6333
133.6453
133.6573
133.6693
133.6813
133.6933
133.7053
133.7173
133.7293
133.7413
133.7533
133.7653
133.7773
133.7893
133.8013
133.8133
133.8253
133.8373
133.8493
133.8613
133.8733
133.8853
133.8973
133.9093
133.9213
133.9333
133.9453
133.9573
133.9693
133.9813
133.9933
134.0053
134.0173
134.0293
134.0413
134.0533
134.0653
134.0772
134.0892
134.1012
134.1132
134.1252
134.1372
134.1492
134.1612
134.1732
134.1852
134.1972
134.2092
134.2212
134.2332
134.2452
134.2572
134.2692
134.2812
134.2932
134.3052
134.3172
134.3292
134.3412
134.3532
134.3652
134.3772
134.3892
134.4012
134.4132
134.4252
134.4372
134.4492
134.4612
134.4732
134.4852
134.4972
134.5092
134.5212
134.5332
134.5452
134.5572
134.5692
134.5812
134.5932
134.6052
134.6172
134.6292
134.6412
134.6532
134.6652
134.6772
134.6892
134.7012
134.7132
134.7252
134.7372
134.7492
134.7612
134.7732
134.7852
134.7972
134.8092
134.8212
134.8332
134.8452
134.8572
134.8692
134.8812
134.8932
134.9052
134.9172
134.9292
134.9412
134.9532
134.9652
134.9772
134.9892
135.0012
135.0132
135.0252
135.0372
135.0492
135.0612
135.0732
135.0852
135.0972
135.1092
135.1212
135.1332
135.1452
135.1572
135.1692
135.1812
135.1932
135.2052
135.2172
135.2292
135.2412
135.2532
135.2652
135.2772
135.2892
135.3012
135.3132
135.3251
135.3371
135.3491
135.3611
135.3731
135.3851
135.3971
135.4091
135.4211
135.4331
135.4451
135.4571
135.4691
135.4811
135.4931
135.5051
135.5171
135.5291
135.5411
135.5531
135.5651
135.5771
135.5891
135.6011
135.6131
135.6251
135.6371
135.6491
135.6611
135.6731
135.6851
135.6971
135.7091
135.7211
135.7331
135.7451
135.7571
135.7691
135.7811
135.7931
135.8051
135.8171
135.8291
135.8411
135.8531
135.8651
135.8771
135.8891
135.9011
135.9131
135.9251
135.9371
135.9491
135.9611
135.9731
135.9851
135.9971
136.0091
136.0211
136.0331
136.0451
136.0571
136.0691
136.0811
136.0931
136.1051
136.1171
136.1291
136.1411
136.1531
136.1651
136.1771
136.1891
136.2011
136.2131
136.2251
136.2371
136.2491
136.2611
136.2731
136.2851
136.2971
136.3091
136.3211
136.3331
136.3451
136.3571
136.3691
136.3811
136.3931
136.4051
136.4171
136.4291
136.4411
136.4531
136.4651
136.4771
136.4891
136.5011
136.5131
136.5251
136.5371
136.5491
136.5611
136.573
136.585
136.597
136.609
136.621
136.633
136.645
136.657
136.669
136.681
136.693
136.705
136.717
136.729
136.741
136.753
136.765
136.777
136.789
136.801
136.813
136.825
136.837
136.849
136.861
136.873
136.885
136.897
136.909
136.921
136.933
136.945
136.957
136.969
136.981
136.993
137.005
137.017
137.029
137.041
137.053
137.065
137.077
137.089
137.101
137.113
137.125
137.137
137.149
137.161
137.173
137.185
137.197
137.209
137.221
137.233
137.245
137.257
137.269
137.281
137.293
137.305
137.317
137.329
137.341
137.353
137.365
137.377
137.389
137.401
137.413
137.425
137.437
137.449
137.461
137.473
137.485
137.497
137.509
137.521
137.533
137.545
137.557
137.569
137.581
137.593
137.605
137.617
137.629
137.641
137.653
137.665
137.677
137.689
137.701
137.713
137.725
137.737
137.749
137.761
137.773
137.785
137.797
137.809
137.8209
137.8329
137.8449
137.8569
137.8689
137.8809
137.8929
137.9049
137.9169
137.9289
137.9409
137.9529
137.9649
137.9769
137.9889
138.0009
138.0129
138.0249
138.0369
138.0489
138.0609
138.0729
138.0849
138.0969
138.1089
138.1209
138.1329
138.1449
138.1569
138.1689
138.1809
138.1929
138.2049
138.2169
138.2289
138.2409
138.2529
138.2649
138.2769
138.2889
138.3009
138.3129
138.3249
138.3369
138.3489
138.3609
138.3729
138.3849
138.3969
138.4089
138.4209
138.4329
138.4449
138.4569
138.4689
138.4809
138.4929
138.5049
138.5169
138.5289
138.5409
138.5529
138.5649
138.5769
138.5889
138.6009
138.6129
138.6249
138.6369
138.6489
138.6609
138.6729
138.6849
138.6969
138.7089
138.7209
138.7329
138.7449
138.7569
138.7689
138.7809
138.7929
138.8049
138.8169
138.8289
138.8409
138.8529
138.8649
138.8769
138.8889
138.9009
138.9129
138.9249
138.9369
138.9489
138.9609
138.9729
138.9849
138.9969
139.0089
139.0209
139.0329
139.0449
139.0569
139.0689
139.0808
139.0928
139.1048
139.1168
139.1288
139.1408
139.1528
139.1648
139.1768
139.1888
139.2008
139.2128
139.2248
139.2368
139.2488
139.2608
139.2728
139.2848
139.2968
139.3088
139.3208
139.3328
139.3448
139.3568
139.3688
139.3808
139.3928
139.4048
139.4168
139.4288
139.4408
139.4528
139.4648
139.4768
139.4888
139.5008
139.5128
139.5248
139.5368
139.5488
139.5608
139.5728
139.5848
139.5968
139.6088
139.6208
139.6328
139.6448
139.6568
139.6688
139.6808
139.6928
139.7048
139.7168
139.7288
139.7408
139.7528
139.7648
139.7768
139.7888
139.8008
139.8128
139.8248
139.8368
139.8488
139.8608
139.8728
139.8848
139.8968
139.9088
139.9208
139.9328
139.9448
139.9568
139.9688
139.9808
139.9928
