10.0072
10.0192
10.0312
10.0432
10.0552
10.0672
10.0792
10.0912
10.1032
10.1152
10.1272
10.1392
10.1512
10.1632
10.1752
10.1872
10.1992
10.2112
10.2232
10.2352
10.2472
10.2592
10.2712
10.2832
10.2952
10.3072
10.3192
10.3311
10.3431
10.3551
10.3671
10.3791
10.3911
10.4031
10.4151
10.4271
10.4391
10.4511
10.4631
10.4751
10.4871
10.4991
10.5111
10.5231
10.5351
10.5471
10.5591
10.5711
10.5831
10.5951
10.6071
10.6191
10.6311
10.6431
10.6551
10.6671
10.6791
10.6911
10.7031
10.7151
10.7271
10.7391
10.7511
10.7631
10.7751
10.7871
10.7991
10.8111
10.8231
10.8351
10.8471
10.8591
10.8711
10.8831
10.8951
10.9071
10.9191
10.9311
10.9431
10.9551
10.9671
10.9791
10.9911
11.0031
11.0151
11.0271
11.0391
11.0511
11.0631
11.0751
11.0871
11.0991
11.1111
11.1231
11.1351
11.1471
11.1591
11.1711
11.1831
11.1951
11.2071
11.2191
11.2311
11.2431
11.2551
11.2671
11.2791
11.2911
11.3031
11.3151
11.3271
11.3391
11.3511
11.3631
11.3751
11.3871
11.3991
11.4111
11.4231
11.4351
11.4471
11.4591
11.4711
11.4831
11.4951
11.5071
11.5191
11.5311
11.5431
11.5551
11.5671
11.579
11.591
11.603
11.615
11.627
11.639
11.651
11.663
11.675
11.687
11.699
11.711
11.723
11.735
11.747
11.759
11.771
11.783
11.795
11.807
11.819
11.831
11.843
11.855
11.867
11.879
11.891
11.903
11.915
11.927
11.939
11.951
11.963
11.975
11.987
11.999
12.011
12.023
12.035
12.047
12.059
12.071
12.083
12.095
12.107
12.119
12.131
12.143
12.155
12.167
12.179
12.191
12.203
12.215
12.227
12.239
12.251
12.263
12.275
12.287
12.299
12.311
12.323
12.335
12.347
12.359
12.371
12.383
12.395
12.407
12.419
12.431
12.443
12.455
12.467
12.479
12.491
12.503
12.515
12.527
12.539
12.551
12.563
12.575
12.587
12.599
12.611
12.623
12.635
12.647
12.659
12.671
12.683
12.695
12.707
12.719
12.731
12.743
12.755
12.767
12.779
12.791
12.803
12.815
12.8269
12.8389
12.8509
12.8629
12.8749
12.8869
12.8989
12.9109
12.9229
12.9349
12.9469
12.9589
12.9709
12.9829
12.9949
13.0069
13.0189
13.0309
13.0429
13.0549
13.0669
13.0789
13.0909
13.1029
13.1149
13.1269
13.1389
13.1509
13.1629
13.1749
13.1869
13.1989
13.2109
13.2229
13.2349
13.2469
13.2589
13.2709
13.2829
13.2949
13.3069
13.3189
13.3309
13.3429
13.3549
13.3669
13.3789
13.3909
13.4029
13.4149
13.4269
13.4389
13.4509
13.4629
13.4749
13.4869
13.4989
13.5109
13.5229
13.5349
13.5469
13.5589
13.5709
13.5829
13.5949
13.6069
13.6189
13.6309
13.6429
13.6549
13.6669
13.6789
13.6909
13.7029
13.7149
13.7269
13.7389
13.7509
13.7629
13.7749
13.7869
13.7989
13.8109
13.8229
13.8349
13.8469
13.8589
13.8709
13.8829
13.8949
13.9069
13.9189
13.9309
13.9429
13.9549
13.9669
13.9789
13.9909
14.0029
14.0149
14.0269
14.0389
14.0509
14.0629
14.0749
14.0868
14.0988
14.1108
14.1228
14.1348
14.1468
14.1588
14.1708
14.1828
14.1948
14.2068
14.2188
14.2308
14.2428
14.2548
14.2668
14.2788
14.2908
14.3028
14.3148
14.3268
14.3388
14.3508
14.3628
14.3748
14.3868
14.3988
14.4108
14.4228
14.4348
14.4468
14.4588
14.4708
14.4828
14.4948
14.5068
14.5188
14.5308
14.5428
14.5548
14.5668
14.5788
14.5908
14.6028
14.6148
14.6268
14.6388
14.6508
14.6628
14.6748
14.6868
14.6988
14.7108
14.7228
14.7348
14.7468
14.7588
14.7708
14.7828
14.7948
14.8068
14.8188
14.8308
14.8428
14.8548
14.8668
14.8788
14.8908
14.9028
14.9148
14.9268
14.9388
14.9508
14.9628
14.9748
14.9868
14.9988
15.0108
15.0228
15.0348
15.0468
15.0588
15.0708
15.0828
15.0948
15.1068
15.1188
15.1308
15.1428
15.1548
15.1668
15.1788
15.1908
15.2028
15.2148
15.2268
15.2388
15.2508
15.2628
15.2748
15.2868
15.2988
15.3108
15.3228
15.3347
15.3467
15.3587
15.3707
15.3827
15.3947
15.4067
15.4187
15.4307
15.4427
15.4547
15.4667
15.4787
15.4907
15.5027
15.5147
15.5267
15.5387
15.5507
15.5627
15.5747
15.5867
15.5987
15.6107
15.6227
15.6347
15.6467
15.6587
15.6707
15.6827
15.6947
15.7067
15.7187
15.7307
15.7427
15.7547
15.7667
15.7787
15.7907
15.8027
15.8147
15.8267
15.8387
15.8507
15.8627
15.8747
15.8867
15.8987
15.9107
15.9227
15.9347
15.9467
15.9587
15.9707
15.9827
15.9947
16.0067
16.0187
16.0307
16.0427
16.0547
16.0667
16.0787
16.0907
16.1027
16.1147
16.1267
16.1387
16.1507
16.1627
16.1747
16.1867
16.1987
16.2107
16.2227
16.2347
16.2467
16.2587
16.2707
16.2827
16.2947
16.3067
16.3187
16.3307
16.3427
16.3547
16.3667
16.3787
16.3907
16.4027
16.4147
16.4267
16.4387
16.4507
16.4627
16.4747
16.4867
16.4987
16.5107
16.5227
16.5347
16.5467
16.5587
16.5707
16.5826
16.5946
16.6066
16.6186
16.6306
16.6426
16.6546
16.6666
16.6786
16.6906
16.7026
16.7146
16.7266
16.7386
16.7506
16.7626
16.7746
16.7866
16.7986
16.8106
16.8226
16.8346
16.8466
16.8586
16.8706
16.8826
16.8946
16.9066
16.9186
16.9306
16.9426
16.9546
16.9666
16.9786
16.9906
17.0026
17.0146
17.0266
17.0386
17.0506
17.0626
17.0746
17.0866
17.0986
17.1106
17.1226
17.1346
17.1466
17.1586
17.1706
17.1826
17.1946
17.2066
17.2186
17.2306
17.2426
17.2546
17.2666
17.2786
17.2906
17.3026
17.3146
17.3266
17.3386
17.3506
17.3626
17.3746
17.3866
17.3986
17.4106
17.4226
17.4346
17.4466
17.4586
17.4706
17.4826
17.4946
17.5066
17.5186
17.5306
17.5426
17.5546
17.5666
17.5786
17.5906
17.6026
17.6146
17.6266
17.6386
17.6506
17.6626
17.6746
17.6866
17.6986
17.7106
17.7226
17.7346
17.7466
17.7586
17.7706
17.7826
17.7946
17.8066
17.8186
17.8305
17.8425
17.8545
17.8665
17.8785
17.8905
17.9025
17.9145
17.9265
17.9385
17.9505
17.9625
17.9745
17.9865
17.9985
18.0105
18.0225
18.0345
18.0465
18.0585
18.0705
18.0825
18.0945
18.1065
18.1185
18.1305
18.1425
18.1545
18.1665
18.1785
18.1905
18.2025
18.2145
18.2265
18.2385
18.2505
18.2625
18.2745
18.2865
18.2985
18.3105
18.3225
18.3345
18.3465
18.3585
18.3705
18.3825
18.3945
18.4065
18.4185
18.4305
18.4425
18.4545
18.4665
18.4785
18.4905
18.5025
18.5145
18.5265
18.5385
18.5505
18.5625
18.5745
18.5865
18.5985
18.6105
18.6225
18.6345
18.6465
18.6585
18.6705
18.6825
18.6945
18.7065
18.7185
18.7305
18.7425
18.7545
18.7665
18.7785
18.7905
18.8025
18.8145
18.8265
18.8385
18.8505
18.8625
18.8745
18.8865
18.8985
18.9105
18.9225
18.9345
18.9465
18.9585
18.9705
18.9825
18.9945
19.0065
19.0185
19.0305
19.0425
19.0545
19.0665
19.0784
19.0904
19.1024
19.1144
19.1264
19.1384
19.1504
19.1624
19.1744
19.1864
19.1984
19.2104
19.2224
19.2344
19.2464
19.2584
19.2704
19.2824
19.2944
19.3064
19.3184
19.3304
19.3424
19.3544
19.3664
19.3784
19.3904
19.4024
19.4144
19.4264
19.4384
19.4504
19.4624
19.4744
19.4864
19.4984
19.5104
19.5224
19.5344
19.5464
19.5584
19.5704
19.5824
19.5944
19.6064
19.6184
19.6304
19.6424
19.6544
19.6664
19.6784
19.6904
19.7024
19.7144
19.7264
19.7384
19.7504
19.7624
19.7744
19.7864
19.7984
19.8104
19.8224
19.8344
19.8464
19.8584
19.8704
19.8824
19.8944
19.9064
19.9184
19.9304
19.9424
19.9544
19.9664
19.9784
19.9904
19.9904
20.0024
20.0144
20.0264
20.0384
20.0504
20.0624
20.0744
20.0864
20.0984
20.1104
20.1224
20.1344
20.1464
20.1584
20.1704
20.1824
20.1944
20.2064
20.2184
20.2304
20.2424
20.2544
20.2664
20.2784
20.2904
20.3024
20.3143
20.3263
20.3383
20.3503
20.3623
20.3743
20.3863
20.3983
20.4103
20.4223
20.4343
20.4463
20.4583
20.4703
20.4823
20.4943
20.5063
20.5183
20.5303
20.5423
20.5543
20.5663
20.5783
20.5903
20.6023
20.6143
20.6263
20.6383
20.6503
20.6623
20.6743
20.6863
20.6983
20.7103
20.7223
20.7343
20.7463
20.7583
20.7703
20.7823
20.7943
20.8063
20.8183
20.8303
20.8423
20.8543
20.8663
20.8783
20.8903
20.9023
20.9143
20.9263
20.9383
20.9503
20.9623
20.9743
20.9863
20.9983
21.0103
21.0223
21.0343
21.0463
21.0583
21.0703
21.0823
21.0943
21.1063
21.1183
21.1303
21.1423
21.1543
21.1663
21.1783
21.1903
21.2023
21.2143
21.2263
21.2383
21.2503
21.2623
21.2743
21.2863
21.2983
21.3103
21.3223
21.3343
21.3463
21.3583
21.3703
21.3823
21.3943
21.4063
21.4183
21.4303
21.4423
21.4543
21.4663
21.4783
21.4903
21.5023
21.5143
21.5263
21.5383
21.5503
21.5622
21.5742
21.5862
21.5982
21.6102
21.6222
21.6342
21.6462
21.6582
21.6702
21.6822
21.6942
21.7062
21.7182
21.7302
21.7422
21.7542
21.7662
21.7782
21.7902
21.8022
21.8142
21.8262
21.8382
21.8502
21.8622
21.8742
21.8862
21.8982
21.9102
21.9222
21.9342
21.9462
21.9582
21.9702
21.9822
21.9942
22.0062
22.0182
22.0302
22.0422
22.0542
22.0662
22.0782
22.0902
22.1022
22.1142
22.1262
22.1382
22.1502
22.1622
22.1742
22.1862
22.1982
22.2102
22.2222
22.2342
22.2462
22.2582
22.2702
22.2822
22.2942
22.3062
22.3182
22.3302
22.3422
22.3542
22.3662
22.3782
22.3902
22.4022
22.4142
22.4262
22.4382
22.4502
22.4622
22.4742
22.4862
22.4982
22.5102
22.5222
22.5342
22.5462
22.5582
22.5702
22.5822
22.5942
22.6062
22.6182
22.6302
22.6422
22.6542
22.6662
22.6782
22.6902
22.7022
22.7142
22.7262
22.7382
22.7502
22.7622
22.7742
22.7862
22.7982
22.8101
22.8221
22.8341
22.8461
22.8581
22.8701
22.8821
22.8941
22.9061
22.9181
22.9301
22.9421
22.9541
22.9661
22.9781
22.9901
23.0021
23.0141
23.0261
23.0381
23.0501
23.0621
23.0741
23.0861
23.0981
23.1101
23.1221
23.1341
23.1461
23.1581
23.1701
23.1821
23.1941
23.2061
23.2181
23.2301
23.2421
23.2541
23.2661
23.2781
23.2901
23.3021
23.3141
23.3261
23.3381
23.3501
23.3621
23.3741
23.3861
23.3981
23.4101
23.4221
23.4341
23.4461
23.4581
23.4701
23.4821
23.4941
23.5061
23.5181
23.5301
23.5421
23.5541
23.5661
23.5781
23.5901
23.6021
23.6141
23.6261
23.6381
23.6501
23.6621
23.6741
23.6861
23.6981
23.7101
23.7221
23.7341
23.7461
23.7581
23.7701
23.7821
23.7941
23.8061
23.8181
23.8301
23.8421
23.8541
23.8661
23.8781
23.8901
23.9021
23.9141
23.9261
23.9381
23.9501
23.9621
23.9741
23.9861
23.9981
24.0101
24.0221
24.0341
24.0461
24.0581
24.07
24.082
24.094
24.106
24.118
24.13
24.142
24.154
24.166
24.178
24.19
24.202
24.214
24.226
24.238
24.25
24.262
24.274
24.286
24.298
24.31
24.322
24.334
24.346
24.358
24.37
24.382
24.394
24.406
24.418
24.43
24.442
24.454
24.466
24.478
24.49
24.502
24.514
24.526
24.538
24.55
24.562
24.574
24.586
24.598
24.61
24.622
24.634
24.646
24.658
24.67
24.682
24.694
24.706
24.718
24.73
24.742
24.754
24.766
24.778
24.79
24.802
24.814
24.826
24.838
24.85
24.862
24.874
24.886
24.898
24.91
24.922
24.934
24.946
24.958
24.97
24.982
24.994
25.006
25.018
25.03
25.042
25.054
25.066
25.078
25.09
25.102
25.114
25.126
25.138
25.15
25.162
25.174
25.186
25.198
25.21
25.222
25.234
25.246
25.258
25.27
25.282
25.294
25.306
25.3179
25.3299
25.3419
25.3539
25.3659
25.3779
25.3899
25.4019
25.4139
25.4259
25.4379
25.4499
25.4619
25.4739
25.4859
25.4979
25.5099
25.5219
25.5339
25.5459
25.5579
25.5699
25.5819
25.5939
25.6059
25.6179
25.6299
25.6419
25.6539
25.6659
25.6779
25.6899
25.7019
25.7139
25.7259
25.7379
25.7499
25.7619
25.7739
25.7859
25.7979
25.8099
25.8219
25.8339
25.8459
25.8579
25.8699
25.8819
25.8939
25.9059
25.9179
25.9299
25.9419
25.9539
25.9659
25.9779
25.9899
26.0019
26.0139
26.0259
26.0379
26.0499
26.0619
26.0739
26.0859
26.0979
26.1099
26.1219
26.1339
26.1459
26.1579
26.1699
26.1819
26.1939
26.2059
26.2179
26.2299
26.2419
26.2539
26.2659
26.2779
26.2899
26.3019
26.3139
26.3259
26.3379
26.3499
26.3619
26.3739
26.3859
26.3979
26.4099
26.4219
26.4339
26.4459
26.4579
26.4699
26.4819
26.4939
26.5059
26.5179
26.5299
26.5419
26.5539
26.5658
26.5778
26.5898
26.6018
26.6138
26.6258
26.6378
26.6498
26.6618
26.6738
26.6858
26.6978
26.7098
26.7218
26.7338
26.7458
26.7578
26.7698
26.7818
26.7938
26.8058
26.8178
26.8298
26.8418
26.8538
26.8658
26.8778
26.8898
26.9018
26.9138
26.9258
26.9378
26.9498
26.9618
26.9738
26.9858
26.9978
27.0098
27.0218
27.0338
27.0458
27.0578
27.0698
27.0818
27.0938
27.1058
27.1178
27.1298
27.1418
27.1538
27.1658
27.1778
27.1898
27.2018
27.2138
27.2258
27.2378
27.2498
27.2618
27.2738
27.2858
27.2978
27.3098
27.3218
27.3338
27.3458
27.3578
27.3698
27.3818
27.3938
27.4058
27.4178
27.4298
27.4418
27.4538
27.4658
27.4778
27.4898
27.5018
27.5138
27.5258
27.5378
27.5498
27.5618
27.5738
27.5858
27.5978
27.6098
27.6218
27.6338
27.6458
27.6578
27.6698
27.6818
27.6938
27.7058
27.7178
27.7298
27.7418
27.7538
27.7658
27.7778
27.7898
27.8018
27.8137
27.8257
27.8377
27.8497
27.8617
27.8737
27.8857
27.8977
27.9097
27.9217
27.9337
27.9457
27.9577
27.9697
27.9817
27.9937
28.0057
28.0177
28.0297
28.0417
28.0537
28.0657
28.0777
28.0897
28.1017
28.1137
28.1257
28.1377
28.1497
28.1617
28.1737
28.1857
28.1977
28.2097
28.2217
28.2337
28.2457
28.2577
28.2697
28.2817
28.2937
28.3057
28.3177
28.3297
28.3417
28.3537
28.3657
28.3777
28.3897
28.4017
28.4137
28.4257
28.4377
28.4497
28.4617
28.4737
28.4857
28.4977
28.5097
28.5217
28.5337
28.5457
28.5577
28.5697
28.5817
28.5937
28.6057
28.6177
28.6297
28.6417
28.6537
28.6657
28.6777
28.6897
28.7017
28.7137
28.7257
28.7377
28.7497
28.7617
28.7737
28.7857
28.7977
28.8097
28.8217
28.8337
28.8457
28.8577
28.8697
28.8817
28.8937
28.9057
28.9177
28.9297
28.9417
28.9537
28.9657
28.9777
28.9897
29.0017
29.0137
29.0257
29.0377
29.0497
29.0616
29.0736
29.0856
29.0976
29.1096
29.1216
29.1336
29.1456
29.1576
29.1696
29.1816
29.1936
29.2056
29.2176
29.2296
29.2416
29.2536
29.2656
29.2776
29.2896
29.3016
29.3136
29.3256
29.3376
29.3496
29.3616
29.3736
29.3856
29.3976
29.4096
29.4216
29.4336
29.4456
29.4576
29.4696
29.4816
29.4936
29.5056
29.5176
29.5296
29.5416
29.5536
29.5656
29.5776
29.5896
29.6016
29.6136
29.6256
29.6376
29.6496
29.6616
29.6736
29.6856
29.6976
29.7096
29.7216
29.7336
29.7456
29.7576
29.7696
29.7816
29.7936
29.8056
29.8176
29.8296
29.8416
29.8536
29.8656
29.8776
29.8896
29.9016
29.9136
29.9256
29.9376
29.9496
29.9616
29.9736
